#Creator: pendulumviewEventBuffer
#Creation time: Mon Mar  7 09:51:44 2022
#Time A	Pos A	Time B	Pos B
#[s]	[au]	[s]	[au]
0.025	608	0.051	458
0.076	627	0.102	462
0.126	638	0.152	468
0.178	642	0.203	473
0.228	637	0.253	479
0.279	625	0.305	483
0.329	605	0.355	488
0.380	579	0.406	491
0.432	548	0.456	494
0.482	514	0.507	495
0.533	479	0.558	495
0.583	445	0.609	494
0.634	412	0.659	492
0.685	383	0.710	486
0.736	361	0.760	482
0.786	345	0.812	475
0.837	336	0.862	469
0.887	335	0.913	462
0.938	341	0.963	456
0.989	355	1.014	450
1.040	376	1.064	445
1.090	403	1.116	441
1.141	434	1.166	438
1.191	468	1.217	437
1.243	502	1.267	438
1.293	535	1.318	441
1.344	566	1.369	444
1.394	593	1.420	450
1.445	614	1.470	456
1.496	628	1.521	464
1.547	635	1.571	472
1.597	634	1.623	479
1.648	625	1.673	487
1.698	609	1.724	495
1.749	587	1.774	499
1.800	560	1.825	504
1.851	528	1.875	506
1.901	495	1.927	507
1.952	461	1.977	506
2.002	429	2.028	502
2.054	400	2.078	496
2.104	375	2.129	490
2.155	357	2.180	482
2.205	346	2.231	473
2.256	340	2.281	464
2.307	343	2.332	455
2.358	354	2.382	446
2.408	371	2.434	439
2.459	394	2.484	432
2.509	423	2.535	429
2.560	453	2.585	427
2.611	486	2.636	427
2.662	519	2.686	429
2.712	549	2.738	433
2.763	577	2.788	440
2.813	600	2.839	448
2.865	616	2.889	458
2.915	626	2.940	468
2.966	628	2.991	478
3.016	623	3.042	488
3.067	610	3.092	498
3.118	592	3.143	506
3.169	568	3.193	512
3.219	540	3.245	516
3.270	509	3.295	518
3.320	477	3.346	517
3.372	445	3.396	513
3.422	416	3.447	507
3.473	391	3.498	499
3.523	371	3.549	490
3.574	357	3.600	479
3.624	349	3.650	468
3.676	349	3.701	456
3.726	356	3.751	445
3.777	369	3.803	435
3.827	389	3.853	427
3.878	413	3.904	421
3.929	441	3.954	417
3.980	472	4.005	416
4.030	503	4.056	418
4.081	533	4.107	422
4.131	561	4.157	430
4.183	584	4.208	439
4.233	603	4.258	450
4.284	614	4.309	462
4.334	620	4.360	475
4.385	619	4.411	487
4.435	610	4.461	499
4.487	595	4.512	510
4.537	574	4.562	518
4.588	549	4.614	524
4.638	521	4.664	527
4.689	492	4.715	527
4.740	461	4.765	525
4.791	432	4.816	519
4.841	406	4.867	511
4.892	386	4.918	499
4.942	370	4.968	487
4.994	360	5.019	474
5.044	357	5.069	460
5.095	360	5.120	446
5.145	370	5.171	434
5.196	386	5.222	423
5.246	407	5.272	415
5.298	432	5.323	409
5.348	460	5.373	406
5.399	489	5.425	407
5.449	518	5.475	411
5.500	545	5.526	418
5.551	568	5.576	428
5.602	588	5.627	440
5.652	601	5.678	454
5.703	609	5.729	469
5.753	611	5.779	484
5.805	606	5.830	498
5.855	594	5.880	511
5.906	578	5.932	523
5.956	556	5.982	531
6.007	531	6.033	535
6.057	503	6.083	537
6.109	476	6.134	535
6.159	448	6.184	529
6.210	423	6.236	521
6.260	401	6.286	510
6.311	384	6.337	496
6.362	372	6.387	482
6.413	367	6.438	465
6.463	367	6.489	450
6.514	373	6.540	435
6.564	385	6.590	422
6.616	403	6.641	411
6.666	425	6.691	402
6.717	450	6.743	399
6.767	476	6.793	398
6.818	503	6.844	401
6.868	529	6.894	407
6.920	553	6.945	417
6.970	573	6.995	430
7.021	588	7.047	445
7.071	597	7.097	461
7.122	602	7.148	478
7.173	600	7.198	494
7.224	592	7.249	510
7.274	578	7.300	523
7.325	560	7.351	534
7.375	538	7.401	541
7.427	514	7.452	545
7.477	488	7.502	544
7.528	462	7.554	540
7.578	438	7.604	532
7.629	416	7.655	521
7.679	399	7.705	507
7.731	386	7.756	490
7.781	378	7.806	473
7.832	375	7.858	456
7.882	379	7.908	438
7.933	387	7.959	423
7.984	402	8.009	410
8.035	420	8.060	400
8.085	442	8.111	393
8.136	465	8.162	390
8.186	490	8.212	392
8.238	515	8.263	398
8.288	537	8.313	407
8.339	557	8.365	419
8.389	573	8.415	435
8.440	584	8.466	452
8.490	591	8.516	471
8.542	591	8.567	489
8.592	586	8.617	507
8.643	577	8.669	523
8.693	562	8.719	535
8.744	543	8.770	545
8.795	522	8.820	551
8.846	499	8.871	552
8.896	475	8.922	550
8.947	452	8.973	542
8.997	431	9.023	532
9.049	413	9.074	518
9.099	400	9.124	501
9.150	390	9.176	482
9.200	387	9.226	463
9.251	386	9.277	443
9.301	393	9.327	426
9.353	403	9.378	411
9.403	418	9.428	398
9.454	437	9.480	389
9.504	458	9.530	385
9.555	480	9.581	384
9.606	502	9.631	388
9.657	523	9.682	397
9.708	542	9.733	409
9.758	558	9.784	424
9.809	570	9.834	443
9.860	578	9.885	462
9.911	581	9.935	482
9.961	579	9.987	501
10.012	572	10.037	520
10.062	560	10.088	534
10.114	545	10.138	547
10.164	527	10.189	554
10.215	507	10.239	558
10.265	486	10.291	557
10.316	465	10.341	552
10.366	445	10.392	541
10.418	428	10.442	528
10.468	414	10.493	511
10.519	404	10.544	492
10.569	398	10.595	472
10.620	397	10.645	451
10.671	400	10.696	432
10.722	407	10.746	414
10.772	419	10.798	399
10.823	434	10.848	387
10.873	452	10.899	381
10.925	471	10.949	378
10.975	491	11.000	381
11.026	510	11.050	387
11.076	528	11.102	399
11.127	544	11.152	414
11.177	556	11.203	432
11.229	564	11.253	452
11.279	570	11.304	473
11.330	569	11.355	494
11.380	565	11.406	514
11.431	557	11.456	532
11.482	545	11.507	545
11.533	530	11.557	556
11.583	513	11.609	562
11.634	495	11.659	563
11.684	476	11.710	559
11.736	458	11.760	551
11.786	442	11.811	538
11.837	428	11.861	521
11.887	417	11.913	503
11.938	411	11.963	481
11.988	407	12.014	460
12.040	408	12.064	439
12.090	413	12.115	419
12.141	422	12.166	402
12.191	434	12.217	389
12.242	448	12.267	379
12.293	465	12.318	374
12.344	482	12.368	374
12.394	499	12.420	380
12.445	515	12.470	389
12.495	530	12.521	404
12.547	541	12.571	422
12.597	551	12.622	442
12.648	557	12.672	464
12.698	558	12.724	485
12.749	556	12.775	507
12.799	551	12.825	526
12.851	542	12.876	542
12.901	530	12.926	555
12.952	516	12.978	563
13.002	500	13.028	567
13.053	485	13.079	565
13.104	469	13.129	558
13.155	455	13.180	546
13.205	441	13.231	532
13.256	431	13.282	513
13.306	423	13.332	492
13.358	420	13.383	469
13.408	419	13.433	447
13.459	422	13.485	426
13.509	427	13.535	407
13.560	437	13.586	391
13.610	448	13.636	380
13.662	461	13.687	372
13.712	476	13.737	371
13.763	490	13.789	374
13.813	505	13.839	382
13.864	518	13.890	395
13.915	529	13.940	411
13.966	537	13.991	432
14.016	544	14.042	453
14.067	547	14.093	476
14.117	547	14.143	498
14.169	543	14.194	519
14.219	537	14.244	538
14.270	528	14.296	553
14.320	516	14.346	563
14.371	504	14.397	568
14.421	491	14.447	569
14.473	478	14.498	564
14.523	465	14.548	555
14.574	454	14.600	540
14.624	444	14.650	523
14.675	437	14.701	502
14.726	432	14.751	480
14.777	430	14.802	457
14.827	431	14.853	434
14.878	435	14.904	414
14.928	441	14.954	396
14.980	450	15.005	383
15.030	460	15.055	372
15.081	471	15.107	369
15.131	483	15.157	370
15.182	495	15.208	376
15.232	507	15.258	387
15.284	517	15.309	402
15.334	525	15.359	421
15.385	530	15.411	443
15.435	535	15.461	465
15.486	536	15.512	489
15.537	534	15.562	511
15.588	530	15.613	531
15.638	523	15.664	548
15.689	515	15.715	560
15.739	505	15.765	568
15.791	495	15.816	571
15.841	484	15.866	569
15.892	474	15.918	561
15.942	464	15.968	548
15.993	456	16.019	532
16.044	449	16.069	512
16.095	445	16.120	490
16.145	442	16.170	467
16.196	442	16.222	444
16.246	444	16.272	422
16.297	448	16.323	403
16.348	454	16.373	387
16.399	461	16.424	376
16.449	470	16.475	369
16.500	479	16.526	368
16.550	489	16.576	371
16.602	497	16.627	381
16.652	505	16.677	394
16.703	512	16.729	412
16.753	518	16.779	433
16.804	522	16.830	456
16.855	523	16.880	479
16.906	523	16.931	502
16.956	521	16.981	522
17.007	517	17.033	542
17.057	511	17.083	556
17.108	504	17.134	566
17.159	497	17.184	571
17.210	489	17.235	571
17.261	481	17.286	565
17.311	473	17.337	555
17.362	467	17.387	540
17.413	461	17.438	522
17.464	457	17.488	500
17.514	454	17.540	478
17.565	453	17.590	454
17.615	454	17.641	432
17.667	456	17.691	411
17.717	460	17.742	393
17.768	465	17.792	380
17.818	470	17.844	371
17.869	478	17.894	367
17.919	484	17.945	370
17.971	491	17.995	376
18.021	497	18.046	388
18.072	502	18.097	404
18.122	507	18.148	424
18.173	509	18.198	446
18.224	511	18.249	469
18.275	512	18.299	492
18.325	511	18.351	514
18.376	509	18.401	533
18.426	505	18.452	549
18.478	501	18.502	562
18.528	496	18.553	568
18.579	491	18.604	571
18.629	485	18.655	568
18.680	480	18.705	559
18.730	475	18.756	546
18.782	471	18.806	530
18.832	468	18.857	510
18.883	466	18.908	488
18.933	464	18.959	464
18.984	465	19.009	442
19.035	465	19.060	420
19.086	468	19.110	401
19.136	470	19.162	387
19.187	474	19.212	376
19.237	478	19.263	370
19.289	482	19.313	369
19.339	486	19.364	374
19.390	490	19.415	383
19.440	493	19.466	398
19.491	496	19.516	415
19.541	499	19.567	436
19.593	500	19.617	459
19.643	501	19.668	481
19.694	500	19.719	504
19.744	499	19.770	524
19.795	498	19.820	542
19.846	496	19.871	555
19.897	493	19.921	565
19.947	490	19.973	569
19.998	488	20.023	568
20.048	484	20.074	562
20.100	482	20.124	552
20.150	480	20.175	536
20.201	478	20.226	518
20.251	476	20.277	497
20.302	476	20.328	475
20.352	476	20.378	452
20.404	476	20.429	430
20.454	476	20.479	411
20.505	478	20.531	394
20.555	479	20.581	382
20.606	480	20.632	374
20.657	482	20.682	371
20.708	483	20.733	373
20.758	485	20.784	381
20.809	486	20.835	392
20.859	488	20.885	408
20.911	489	20.936	428
20.961	489	20.986	449
21.012	489	21.038	471
21.062	490	21.088	493
21.113	489	21.139	514
21.164	489	21.189	532
21.215	489	21.240	548
21.265	488	21.290	558
21.316	488	21.342	565
21.366	487	21.392	566
21.417	487	21.443	563
21.468	486	21.493	554
21.519	486	21.544	541
21.569	486	21.595	524
21.620	486	21.646	506
21.670	486	21.696	484
21.722	486	21.747	462
21.772	486	21.797	441
21.823	486	21.849	421
21.873	486	21.899	404
21.924	485	21.950	389
21.975	484	22.000	380
22.026	484	22.051	375
22.076	484	22.101	375
22.127	483	22.153	380
22.177	483	22.203	390
22.228	482	22.254	404
22.279	481	22.304	421
22.330	481	22.355	440
22.380	480	22.406	462
22.431	480	22.457	483
22.481	481	22.507	503
22.533	481	22.558	523
22.583	482	22.608	539
22.634	483	22.660	551
22.684	484	22.710	559
22.735	486	22.761	563
22.786	487	22.811	561
22.837	489	22.862	555
22.887	490	22.912	544
22.938	492	22.964	530
22.988	493	23.014	513
23.039	494	23.065	493
23.090	494	23.115	472
23.141	494	23.166	451
23.191	493	23.217	431
23.242	493	23.268	413
23.292	491	23.318	399
23.344	489	23.369	387
23.394	487	23.419	381
23.445	484	23.471	379
23.495	482	23.521	382
23.546	479	23.572	389
23.597	477	23.622	401
23.648	475	23.673	416
23.698	474	23.724	433
23.749	472	23.775	454
23.799	472	23.825	473
23.850	472	23.876	495
23.901	473	23.926	513
23.952	475	23.977	530
24.003	477	24.028	543
24.053	480	24.079	553
24.104	484	24.129	558
24.155	487	24.180	558
24.206	489	24.230	554
24.256	494	24.282	546
24.307	496	24.332	534
24.357	499	24.383	518
24.409	500	24.433	500
24.459	502	24.484	480
24.510	502	24.535	461
24.560	501	24.586	441
24.611	500	24.636	423
24.661	497	24.687	407
24.713	494	24.737	396
24.763	490	24.788	387
24.814	486	24.839	384
24.864	482	24.890	384
24.915	478	24.940	390
24.966	474	24.991	399
25.017	471	25.041	412
25.067	468	25.093	428
25.118	465	25.143	446
25.168	465	25.194	466
25.220	464	25.244	484
25.270	465	25.295	503
25.321	468	25.346	520
25.371	471	25.397	534
25.422	475	25.447	544
25.472	479	25.498	551
25.524	484	25.548	553
25.574	490	25.599	551
25.625	495	25.650	545
25.675	499	25.701	535
25.726	503	25.751	522
25.777	506	25.802	506
25.828	508	25.852	488
25.878	509	25.904	469
25.929	509	25.954	451
25.979	507	26.005	433
26.031	505	26.055	417
26.081	500	26.106	405
26.132	496	26.157	395
26.182	490	26.208	390
26.233	484	26.258	389
26.284	478	26.309	393
26.335	473	26.359	399
26.385	467	26.410	410
26.436	464	26.461	423
26.486	460	26.512	440
26.537	458	26.562	457
26.588	458	26.613	476
26.639	458	26.663	493
26.689	461	26.715	510
26.740	464	26.765	524
26.790	469	26.816	535
26.842	474	26.866	542
26.892	481	26.917	547
26.943	487	26.968	547
26.993	494	27.019	543
27.044	500	27.070	535
27.095	506	27.120	524
27.146	510	27.171	510
27.196	514	27.221	494
27.247	516	27.273	477
27.297	515	27.323	459
27.348	515	27.374	442
27.399	511	27.424	428
27.450	507	27.475	414
27.500	501	27.526	405
27.551	495	27.577	398
27.601	488	27.627	396
27.653	480	27.678	396
27.703	473	27.728	402
27.754	466	27.780	409
27.804	460	27.830	422
27.855	456	27.881	435
27.906	452	27.931	452
27.957	451	27.982	468
28.007	452	28.032	484
28.058	453	28.084	500
28.108	457	28.134	514
28.159	462	28.185	526
28.210	469	28.235	534
28.261	476	28.286	539
28.311	484	28.337	541
28.362	492	28.388	539
28.412	500	28.438	533
28.464	507	28.489	525
28.514	513	28.539	512
28.565	518	28.591	499
28.615	521	28.641	483
28.666	522	28.692	468
28.717	521	28.742	451
28.768	518	28.793	437
28.818	514	28.844	425
28.869	507	28.895	414
28.919	500	28.945	406
28.970	492	28.996	403
29.021	484	29.046	403
29.072	475	29.097	405
29.122	467	29.148	412
29.173	459	29.199	421
29.223	453	29.249	432
29.275	448	29.300	447
29.325	446	29.350	462
29.376	445	29.402	476
29.426	447	29.452	491
29.477	451	29.503	504
29.528	456	29.553	516
29.579	462	29.604	525
29.629	471	29.655	532
29.680	479	29.706	535
29.730	489	29.756	533
29.781	498	29.807	530
29.832	507	29.857	522
29.883	514	29.908	513
29.933	521	29.959	502
29.984	525	30.010	488
30.034	527	30.060	474
30.086	527	30.111	460
30.136	525	30.161	446
30.187	521	30.213	434
30.237	514	30.263	424
30.288	507	30.314	415
30.339	497	30.364	411
30.390	488	30.415	409
30.440	478	30.466	411
30.491	468	30.517	415
30.541	460	30.567	422
30.592	452	30.618	432
30.643	446	30.668	444
30.694	442	30.719	456
30.744	440	30.770	470
30.795	441	30.821	483
30.845	444	30.871	496
30.897	449	30.922	507
30.947	456	30.972	515
30.998	465	31.024	523
31.048	474	31.074	526
31.099	484	31.125	527
31.150	495	31.175	525
31.201	505	31.226	520
31.251	514	31.277	512
31.302	522	31.328	503
31.352	527	31.378	491
31.404	530	31.429	479
31.454	532	31.479	466
31.505	530	31.530	454
31.555	527	31.581	443
31.606	521	31.632	433
31.656	513	31.682	425
31.708	503	31.733	419
31.758	493	31.783	417
31.809	482	31.835	417
31.859	471	31.885	420
31.910	461	31.936	425
31.961	452	31.986	433
32.012	445	32.037	442
32.062	440	32.088	453
32.113	437	32.139	465
32.163	437	32.189	476
32.215	438	32.240	487
32.265	443	32.290	498
32.316	450	32.341	506
32.366	459	32.392	513
32.417	468	32.443	518
32.467	479	32.493	519
32.519	491	32.544	518
32.569	502	32.594	515
32.620	512	32.646	509
32.670	521	32.696	502
32.721	528	32.747	492
32.772	533	32.797	483
32.823	535	32.848	472
32.873	534	32.899	462
32.924	532	32.950	451
32.974	526	33.000	442
33.026	519	33.051	434
33.076	509	33.101	429
33.127	498	33.152	425
33.177	487	33.203	425
33.228	475	33.254	426
33.278	464	33.304	430
33.330	454	33.355	435
33.380	446	33.405	442
33.431	439	33.457	452
33.481	435	33.507	461
33.532	433	33.558	471
33.583	434	33.608	481
33.634	438	33.659	490
33.684	444	33.710	498
33.735	452	33.761	505
33.785	463	33.811	508
33.837	474	33.862	511
33.887	486	33.912	512
33.938	498	33.964	509
33.988	508	34.014	505
34.039	519	34.065	499
34.089	528	34.115	493
34.141	534	34.166	484
34.191	537	34.216	475
34.242	538	34.268	466
34.292	536	34.318	458
34.343	531	34.369	450
34.394	525	34.419	443
34.445	515	34.470	438
34.495	504	34.521	435
34.546	492	34.572	433
34.596	480	34.622	434
34.648	468	34.673	435
34.698	457	34.723	440
34.749	447	34.775	445
34.799	439	34.825	452
34.850	434	34.876	460
34.900	431	34.926	467
34.952	431	34.977	475
35.002	434	35.027	483
35.053	439	35.079	490
35.103	447	35.129	495
35.154	457	35.180	499
35.205	468	35.230	502
35.256	481	35.281	503
35.306	493	35.332	502
35.357	505	35.383	499
35.407	516	35.433	496
35.459	526	35.484	490
35.509	533	35.534	485
35.560	538	35.586	477
35.610	540	35.636	471
35.661	539	35.687	463
35.711	535	35.737	458
35.763	529	35.788	451
35.813	520	35.838	447
35.864	510	35.890	443
35.914	498	35.940	442
35.965	485	35.991	441
36.017	473	36.041	443
36.067	461	36.092	445
36.118	450	36.143	449
36.168	441	36.194	454
36.219	434	36.244	459
36.270	431	36.295	465
36.321	429	36.345	471
36.371	431	36.397	477
36.422	435	36.447	482
36.472	443	36.498	487
36.524	452	36.548	491
36.574	463	36.599	494
36.625	475	36.649	494
36.675	487	36.701	494
36.726	500	36.751	493
36.776	512	36.802	491
36.828	522	36.852	487
36.878	531	36.903	483
36.929	537	36.954	478
36.979	540	37.005	473
37.030	540	37.055	468
37.081	538	37.106	463
37.132	533	37.156	458
37.182	525	37.208	454
37.233	515	37.258	452
37.283	504	37.309	450
37.335	491	37.359	449
37.385	477	37.410	450
37.436	466	37.460	451
37.486	454	37.512	454
37.537	444	37.562	457
37.587	436	37.613	461
37.639	431	37.663	464
37.689	428	37.714	469
37.740	429	37.765	473
37.790	432	37.816	477
37.841	439	37.866	480
37.892	447	37.917	483
37.943	458	37.967	485
37.993	470	38.019	486
38.044	482	38.069	486
38.094	495	38.120	486
38.146	507	38.170	484
38.196	519	38.221	482
38.247	528	38.271	480
38.297	535	38.323	477
38.348	539	38.373	474
38.398	542	38.424	470
38.450	540	38.474	467
38.500	536	38.525	464
38.551	529	38.576	462
38.601	520	38.627	460
38.652	509	38.677	458
38.703	496	38.728	458
38.754	483	38.778	458
38.804	470	38.830	459
38.855	459	38.880	459
38.905	448	38.931	462
38.957	439	38.981	463
39.007	433	39.032	466
39.058	429	39.082	468
39.108	429	39.134	470
39.159	431	39.185	472
39.209	436	39.235	475
39.261	443	39.286	476
39.311	453	39.336	477
39.362	464	39.388	478
39.412	476	39.438	478
39.463	489	39.489	478
39.514	502	39.539	477
39.565	514	39.590	477
39.615	524	39.641	475
39.666	531	39.692	474
39.716	538	39.742	472
39.768	540	39.793	472
39.818	541	39.843	470
39.869	538	39.895	469
39.919	532	39.945	468
39.970	524	39.996	466
40.020	513	40.046	466
40.072	501	40.097	466
40.122	489	40.147	466
40.173	476	40.199	466
40.223	464	40.249	467
40.274	453	40.300	467
40.325	443	40.350	468
40.376	436	40.401	469
40.426	431	40.452	469
40.477	429	40.503	469
40.527	430	40.553	470
40.579	434	40.604	470
40.629	440	40.654	470
40.680	449	40.706	471
40.730	460	40.756	470
40.781	471	40.807	470
40.831	484	40.857	470
40.883	496	40.908	471
40.933	508	40.958	470
40.984	519	41.010	470
41.034	528	41.060	470
41.085	534	41.111	470
41.136	538	41.161	470
41.187	540	41.212	471
41.237	538	41.263	471
41.288	533	41.314	470
41.338	526	41.364	471
41.390	517	41.415	472
41.440	506	41.465	472
41.491	494	41.517	472
41.541	482	41.567	472
41.592	470	41.618	471
41.642	458	41.668	472
41.694	448	41.719	471
41.744	440	41.769	471
41.795	434	41.821	469
41.845	432	41.871	470
41.896	431	41.922	469
41.947	434	41.972	468
41.998	439	42.023	468
42.048	446	42.074	467
42.099	456	42.125	467
42.149	467	42.175	466
42.201	479	42.226	467
42.251	491	42.276	467
42.302	503	42.328	468
42.352	514	42.378	468
42.403	524	42.429	469
42.453	530	42.479	470
42.505	535	42.530	470
42.555	538	42.580	471
42.606	537	42.632	473
42.656	534	42.682	473
42.707	528	42.733	474
42.758	520	42.783	475
42.809	510	42.834	474
42.860	499	42.885	475
42.910	486	42.936	474
42.961	475	42.986	474
43.012	464	43.037	473
43.063	453	43.087	473
43.113	445	43.139	471
43.164	438	43.189	471
43.214	434	43.240	469
43.266	433	43.290	468
43.316	434	43.341	466
43.367	438	43.391	466
43.417	444	43.443	465
43.468	453	43.493	464
43.518	463	43.544	464
43.570	474	43.594	464
43.620	486	43.645	465
43.671	497	43.696	466
43.721	509	43.747	466
43.772	518	43.797	467
43.823	526	43.848	469
43.874	532	43.898	470
43.924	535	43.950	472
43.975	535	44.000	473
44.025	534	44.051	474
44.077	529	44.101	476
44.127	522	44.152	476
44.178	513	44.202	477
44.228	503	44.254	477
44.279	491	44.304	477
44.329	480	44.355	476
44.381	469	44.405	476
44.431	458	44.456	475
44.482	449	44.507	473
44.532	442	44.558	471
44.583	437	44.608	470
44.634	435	44.659	468
44.685	435	44.709	466
44.735	438	44.761	465
44.786	443	44.811	464
44.836	450	44.862	463
44.888	459	44.912	462
44.938	470	44.963	462
44.989	481	45.013	462
45.039	492	45.065	464
45.090	503	45.115	464
45.140	513	45.166	466
45.192	522	45.216	467
45.242	528	45.267	469
45.293	532	45.318	471
45.343	533	45.369	473
45.394	532	45.419	475
45.445	529	45.470	476
45.496	524	45.520	478
45.546	515	45.572	478
45.597	506	45.622	479
45.647	496	45.673	479
45.699	484	45.723	479
45.749	474	45.774	478
45.800	463	45.824	476
45.850	454	45.876	475
45.901	447	45.927	473
45.951	441	45.977	471
46.003	438	46.028	469
46.053	437	46.078	467
46.104	438	46.130	464
46.154	443	46.180	464
46.205	448	46.231	461
46.256	457	46.281	461
46.307	466	46.332	460
46.357	476	46.383	461
46.408	487	46.434	461
46.458	498	46.484	463
46.510	508	46.535	464
46.560	517	46.585	465
46.611	523	46.637	468
46.661	528	46.687	470
