#Creator: pendulumviewEventBuffer
#Creation time: Mon Mar  7 09:51:44 2022
#Time A	Pos A	Time B	Pos B
#[s]	[au]	[s]	[au]
0.026	502	0.051	330
0.076	552	0.102	350
0.127	599	0.152	375
0.178	639	0.203	406
0.229	672	0.253	440
0.279	695	0.305	476
0.330	705	0.355	512
0.380	703	0.406	546
0.432	692	0.456	577
0.482	669	0.507	603
0.533	637	0.558	621
0.583	598	0.609	630
0.634	553	0.659	635
0.684	505	0.710	628
0.736	455	0.761	615
0.786	408	0.811	594
0.837	365	0.863	566
0.887	329	0.913	532
0.938	300	0.964	497
0.989	281	1.014	459
1.040	274	1.065	422
1.090	276	1.116	386
1.141	288	1.167	355
1.191	312	1.217	329
1.243	344	1.268	311
1.293	382	1.318	302
1.344	426	1.370	300
1.394	473	1.420	308
1.445	520	1.471	324
1.495	564	1.521	348
1.547	605	1.572	379
1.597	639	1.622	414
1.648	665	1.674	453
1.698	681	1.724	492
1.749	685	1.775	531
1.800	680	1.825	568
1.851	665	1.876	600
1.901	640	1.927	624
1.952	608	1.978	640
2.002	569	2.028	647
2.054	527	2.079	648
2.104	482	2.129	638
2.155	438	2.181	619
2.205	397	2.231	593
2.256	360	2.282	561
2.306	331	2.332	523
2.358	309	2.383	482
2.408	297	2.433	441
2.459	295	2.485	401
2.509	300	2.535	364
2.560	317	2.586	332
2.611	341	2.636	308
2.662	373	2.687	292
2.712	410	2.738	287
2.763	451	2.789	288
2.813	492	2.839	302
2.865	533	2.890	323
2.915	571	2.940	352
2.966	605	2.992	388
3.016	633	3.042	428
3.067	652	3.093	469
3.118	661	3.143	513
3.169	661	3.194	554
3.219	654	3.244	590
3.270	636	3.296	620
3.320	612	3.346	644
3.371	580	3.397	657
3.422	544	3.447	661
3.473	506	3.498	657
3.523	466	3.549	642
3.574	428	3.600	619
3.624	392	3.650	587
3.676	362	3.701	550
3.726	339	3.751	507
3.777	324	3.803	463
3.827	317	3.853	420
3.878	317	3.904	378
3.929	326	3.954	342
3.980	344	4.005	311
4.030	368	4.055	289
4.081	399	4.107	276
4.131	433	4.157	275
4.182	470	4.208	281
4.233	507	4.258	300
4.284	542	4.309	327
4.335	575	4.360	361
4.385	601	4.411	400
4.436	622	4.461	446
4.487	635	4.512	490
4.538	640	4.562	535
4.588	637	4.614	576
4.639	627	4.664	611
4.689	608	4.715	641
4.741	584	4.765	661
4.791	555	4.816	670
4.842	523	4.866	670
4.892	488	4.918	661
4.943	454	4.968	641
4.993	422	5.019	612
5.045	393	5.069	576
5.095	370	5.120	534
5.146	352	5.171	488
5.196	342	5.222	442
5.247	337	5.272	397
5.298	342	5.323	356
5.349	353	5.373	320
5.399	371	5.425	291
5.450	394	5.475	272
5.500	421	5.526	265
5.552	452	5.576	267
5.602	484	5.627	280
5.653	516	5.678	304
5.703	545	5.729	336
5.754	571	5.779	375
5.804	592	5.830	418
5.856	607	5.880	465
5.906	616	5.931	513
5.957	618	5.982	557
6.007	612	6.033	598
6.058	600	6.083	632
6.109	583	6.134	659
6.160	560	6.184	674
6.210	535	6.236	679
6.261	506	6.286	675
6.311	476	6.337	661
6.363	447	6.387	635
6.413	422	6.438	601
6.464	398	6.489	561
6.514	381	6.540	516
6.565	368	6.590	468
6.615	362	6.641	419
6.667	362	6.691	374
6.717	367	6.742	334
6.768	379	6.793	300
6.818	396	6.844	274
6.869	416	6.894	260
6.920	440	6.945	258
6.971	467	6.995	265
7.021	493	7.047	284
7.072	519	7.097	313
7.122	542	7.148	350
7.174	562	7.198	391
7.224	578	7.249	439
7.275	588	7.300	487
7.325	594	7.351	536
7.376	593	7.402	580
7.426	587	7.452	620
7.478	575	7.503	650
7.528	560	7.553	673
7.579	540	7.605	683
7.629	518	7.655	683
7.680	494	7.706	675
7.731	470	7.756	655
7.782	447	7.807	624
7.832	427	7.858	586
7.883	410	7.909	542
7.933	396	7.959	494
7.985	387	8.010	444
8.035	383	8.060	396
8.086	385	8.112	352
8.136	391	8.162	313
8.187	402	8.213	282
8.238	416	8.263	262
8.289	434	8.314	253
8.339	454	8.364	256
8.390	476	8.416	269
8.440	497	8.466	294
8.491	517	8.517	326
8.542	535	8.567	367
8.593	550	8.618	412
8.643	561	8.669	462
8.694	568	8.720	511
8.744	572	8.770	559
8.796	570	8.821	602
8.846	564	8.871	638
8.897	553	8.923	666
8.947	541	8.973	683
8.998	524	9.024	689
9.049	507	9.074	684
9.100	488	9.125	671
9.150	469	9.175	643
9.201	452	9.227	610
9.251	437	9.277	567
9.302	424	9.328	521
9.353	414	9.378	471
9.404	408	9.429	421
9.454	406	9.480	374
9.505	408	9.531	331
9.555	413	9.581	295
9.607	422	9.632	268
9.657	433	9.682	253
9.708	448	9.734	251
9.758	463	9.784	258
9.809	479	9.835	277
9.860	495	9.885	306
9.911	510	9.936	343
9.961	524	9.986	387
10.012	534	10.038	435
10.062	543	10.088	485
10.113	548	10.139	536
10.164	549	10.189	581
10.215	548	10.240	622
10.265	543	10.291	653
10.316	535	10.342	677
10.366	525	10.392	688
10.418	513	10.443	689
10.468	500	10.493	680
10.519	487	10.545	661
10.569	473	10.595	629
10.620	461	10.646	591
10.671	449	10.696	547
10.722	441	10.747	497
10.772	433	10.798	447
10.823	429	10.849	398
10.873	428	10.899	353
10.924	429	10.950	312
10.975	433	11.000	281
11.026	439	11.051	259
11.077	447	11.102	251
11.127	457	11.153	253
11.178	467	11.203	266
11.229	477	11.254	290
11.280	489	11.304	323
11.330	499	11.356	364
11.381	509	11.406	409
11.431	516	11.457	459
11.483	523	11.507	510
11.533	526	11.558	558
11.584	528	11.609	601
11.634	527	11.660	638
11.685	525	11.710	666
11.735	520	11.761	684
11.787	514	11.811	689
11.837	507	11.862	685
11.888	499	11.913	672
11.938	490	11.964	646
11.989	481	12.014	612
12.040	473	12.065	570
12.091	465	12.115	522
12.141	459	12.167	473
12.192	454	12.217	424
12.242	450	12.268	377
12.294	448	12.318	334
12.344	447	12.369	298
12.395	448	12.420	271
12.445	451	12.471	256
12.496	455	12.521	253
12.546	460	12.572	260
12.598	466	12.622	278
12.648	472	12.673	306
12.699	479	12.724	344
12.749	485	12.775	387
12.800	492	12.825	434
12.851	497	12.876	484
12.902	502	12.926	532
12.952	506	12.978	579
13.003	509	13.028	618
13.053	511	13.079	650
13.105	511	13.129	673
13.155	510	13.180	685
13.206	508	13.231	686
13.256	506	13.282	678
13.307	502	13.332	658
13.358	498	13.383	628
13.409	493	13.433	591
13.459	488	13.484	547
13.510	483	13.535	499
13.560	478	13.586	449
13.611	473	13.636	402
13.662	469	13.687	357
13.713	465	13.737	318
13.763	462	13.789	287
13.814	460	13.839	266
13.864	459	13.890	257
13.916	459	13.940	259
13.966	459	13.991	271
14.017	461	14.042	294
14.067	463	14.093	326
14.118	466	14.144	366
14.169	469	14.194	410
14.220	474	14.245	458
14.270	479	14.295	507
14.321	483	14.347	553
14.371	489	14.397	595
14.422	494	14.448	631
14.473	498	14.498	658
14.524	502	14.549	676
14.574	505	14.600	682
14.625	507	14.651	679
14.675	509	14.701	665
14.727	509	14.752	641
14.777	509	14.802	608
14.828	507	14.854	568
14.878	504	14.904	522
14.929	501	14.955	475
14.980	496	15.005	427
15.031	491	15.056	382
15.081	485	15.106	341
15.132	479	15.158	307
15.182	473	15.208	281
15.233	467	15.259	267
15.284	462	15.309	263
15.335	458	15.360	269
15.385	454	15.411	287
15.436	452	15.462	313
15.486	451	15.512	349
15.538	450	15.563	389
15.588	453	15.613	434
15.639	456	15.665	480
15.689	461	15.715	528
15.740	467	15.766	571
15.791	474	15.816	610
15.842	482	15.867	640
15.892	491	15.918	662
15.943	498	15.969	673
15.993	505	16.019	675
16.044	512	16.070	667
16.095	517	16.120	649
16.146	520	16.171	621
16.196	523	16.222	586
16.247	523	16.273	544
16.297	521	16.323	498
16.349	517	16.374	452
16.399	512	16.424	406
16.450	505	16.476	365
16.500	496	16.526	329
16.551	488	16.577	299
16.602	478	16.627	279
16.653	469	16.678	272
16.703	459	16.729	273
16.754	451	16.780	284
16.804	444	16.830	306
16.855	439	16.881	336
16.906	436	16.931	373
16.957	435	16.982	413
17.007	437	17.033	459
17.058	441	17.084	503
17.108	447	17.134	547
17.160	455	17.185	586
17.210	464	17.235	619
17.261	475	17.287	645
17.311	487	17.337	661
17.362	498	17.388	666
17.413	510	17.438	664
17.464	520	17.489	652
17.514	528	17.540	629
17.565	534	17.591	599
17.615	538	17.641	562
17.666	539	17.692	520
17.717	537	17.742	476
17.768	533	17.793	433
17.818	526	17.844	391
17.869	516	17.895	353
17.919	505	17.945	321
17.971	492	17.996	298
18.021	478	18.046	283
18.072	465	18.098	281
18.122	452	18.148	286
18.173	441	18.199	302
18.224	431	18.249	326
18.275	424	18.300	358
18.325	420	18.351	395
18.376	419	18.402	437
18.426	421	18.452	479
18.478	426	18.503	522
18.528	435	18.553	562
18.579	445	18.604	597
18.629	459	18.655	625
18.680	473	18.706	646
18.730	489	18.756	654
18.782	504	18.807	657
18.832	518	18.857	651
18.883	531	18.909	633
18.933	542	18.959	608
18.984	550	19.010	576
19.035	554	19.060	538
19.086	555	19.111	497
19.136	553	19.162	455
19.187	545	19.213	414
19.237	536	19.263	376
19.289	524	19.314	344
19.339	509	19.364	318
19.390	493	19.415	300
19.440	475	19.466	292
19.491	458	19.517	292
19.541	442	19.567	303
19.593	428	19.618	322
19.643	416	19.668	348
19.694	408	19.720	381
19.744	404	19.770	418
19.795	403	19.821	458
19.846	407	19.871	499
19.897	414	19.922	538
19.947	426	19.973	573
19.998	440	20.024	604
20.048	458	20.074	627
20.100	476	20.125	641
20.150	495	20.175	645
20.201	514	20.226	645
20.251	531	20.277	632
20.302	546	20.328	614
20.352	557	20.378	586
20.404	566	20.429	553
20.454	570	20.479	516
20.505	570	20.531	477
20.555	564	20.581	437
20.606	555	20.632	401
20.657	542	20.682	367
20.708	527	20.733	339
20.758	508	20.784	319
20.809	488	20.835	307
20.859	467	20.885	304
20.911	447	20.936	308
20.961	429	20.986	322
21.012	413	21.038	343
21.062	401	21.088	371
21.113	392	21.139	403
21.163	389	21.189	440
21.215	390	21.240	477
21.265	396	21.290	514
21.316	406	21.342	549
21.366	421	21.392	580
21.417	440	21.443	605
21.468	460	21.493	622
21.519	482	21.544	632
21.569	504	21.595	634
21.620	526	21.646	628
21.670	545	21.696	613
21.722	561	21.747	591
21.772	574	21.797	564
21.823	582	21.849	531
21.873	585	21.899	496
21.924	582	21.950	459
21.974	574	22.000	424
22.026	562	22.051	391
22.076	545	22.101	363
22.127	525	22.153	339
22.177	503	22.203	325
22.228	479	22.254	317
22.279	456	22.304	317
22.330	433	22.355	326
22.380	414	22.406	343
22.431	396	22.457	365
22.481	385	22.507	393
22.533	378	22.558	425
22.583	376	22.608	459
22.634	379	22.660	494
22.684	389	22.710	528
22.735	402	22.761	557
22.785	421	22.811	583
22.837	443	22.862	602
22.887	467	22.912	615
22.938	491	22.964	620
22.988	516	23.014	617
23.039	540	23.065	609
23.091	560	23.115	593
23.141	577	23.166	568
23.192	589	23.217	542
23.242	596	23.268	511
23.293	597	23.318	478
23.344	591	23.369	445
23.395	580	23.419	414
23.445	565	23.471	386
23.496	544	23.521	362
23.546	521	23.572	345
23.598	495	23.622	335
23.648	468	23.673	330
23.699	442	23.723	335
23.749	418	23.775	346
23.800	397	23.825	363
23.850	381	23.876	386
23.902	370	23.926	413
23.952	364	23.977	444
24.003	365	24.028	475
24.053	372	24.079	506
24.104	384	24.129	535
24.155	402	24.180	560
24.206	424	24.230	581
24.256	450	24.282	595
24.307	477	24.332	604
24.357	505	24.383	605
24.409	532	24.433	601
24.459	556	24.484	588
24.510	577	24.534	572
24.560	593	24.586	548
24.611	603	24.636	522
24.661	607	24.687	493
24.713	606	24.737	464
24.763	596	24.788	435
24.814	582	24.839	408
24.864	563	24.890	385
24.915	539	24.940	367
24.966	511	24.991	354
25.017	483	25.041	347
25.067	454	25.093	347
25.118	427	25.143	354
25.168	402	25.194	366
25.220	381	25.244	384
25.270	366	25.295	406
25.321	357	25.345	432
25.371	354	25.397	460
25.422	357	25.447	487
25.472	368	25.498	514
25.524	384	25.548	538
25.574	406	25.599	559
25.625	432	25.650	575
25.675	460	25.701	585
25.726	490	25.751	590
25.777	520	25.802	589
25.828	548	25.852	581
25.878	573	25.904	569
25.929	593	25.954	551
25.979	607	26.005	530
26.031	616	26.055	505
26.081	617	26.106	479
26.132	611	26.156	454
26.182	599	26.208	429
26.233	580	26.259	407
26.283	557	26.309	389
26.335	529	26.360	374
26.385	499	26.410	366
26.436	468	26.462	362
26.486	438	26.512	365
26.537	410	26.563	373
26.588	385	26.613	387
26.639	367	26.664	404
26.689	353	26.715	425
26.740	346	26.766	447
26.790	347	26.816	472
26.842	354	26.867	495
26.892	368	26.917	518
26.943	388	26.969	537
26.993	414	27.019	554
27.044	442	27.070	565
27.094	474	27.120	572
27.146	505	27.171	574
27.196	536	27.221	571
27.247	564	27.273	562
27.297	588	27.323	549
27.348	607	27.374	532
27.399	619	27.424	513
27.450	625	27.475	491
27.500	623	27.526	469
27.551	612	27.577	448
27.601	597	27.627	428
27.653	575	27.678	409
27.703	548	27.728	396
27.754	517	27.780	385
27.804	485	27.830	381
27.855	452	27.881	379
27.905	421	27.931	384
27.957	394	27.982	393
28.007	370	28.032	405
28.058	353	28.084	422
28.108	343	28.134	440
28.159	339	28.185	460
28.210	342	28.235	480
28.261	354	28.286	499
28.311	372	28.337	518
28.362	396	28.388	533
28.412	424	28.438	544
28.464	456	28.489	553
28.514	489	28.539	557
28.565	522	28.591	557
28.615	553	28.641	552
28.666	580	28.692	543
28.716	603	28.742	531
28.768	619	28.793	517
28.818	628	28.843	499
28.869	630	28.895	481
28.919	624	28.945	463
28.970	611	28.996	446
29.021	591	29.046	430
29.072	565	29.097	416
29.122	535	29.148	406
29.173	502	29.199	399
29.223	468	29.249	397
29.275	436	29.300	397
29.325	405	29.350	403
29.376	378	29.402	411
29.426	357	29.452	422
29.477	342	29.503	435
29.527	335	29.553	451
29.579	335	29.604	467
29.629	343	29.654	484
29.680	358	29.706	499
29.730	380	29.756	513
29.781	407	29.807	524
29.832	438	29.857	533
29.883	471	29.908	539
29.934	506	29.959	540
29.984	539	30.010	539
30.035	569	30.060	534
30.086	595	30.111	526
30.137	615	30.161	515
30.187	629	30.213	503
30.238	634	30.263	489
30.288	632	30.314	475
30.340	622	30.364	461
30.390	605	30.415	447
30.441	581	30.465	435
30.491	552	30.517	426
30.542	520	30.567	419
30.592	485	30.618	415
30.644	451	30.668	413
30.694	418	30.719	415
30.745	389	30.770	420
30.795	364	30.821	427
30.846	346	30.871	436
30.897	335	30.922	447
30.948	332	30.972	459
30.998	335	31.024	472
31.049	347	31.074	485
31.099	366	31.125	495
31.151	391	31.175	505
31.201	421	31.226	513
31.252	454	31.276	518
31.302	489	31.328	523
31.353	522	31.378	523
31.403	556	31.429	522
31.455	584	31.479	518
31.505	608	31.530	511
31.556	625	31.581	503
31.606	635	31.632	493
31.657	636	31.682	483
31.708	630	31.733	472
31.759	616	31.783	463
31.809	595	31.835	453
31.860	568	31.885	445
31.910	537	31.936	438
31.962	504	31.986	434
32.012	468	32.037	431
32.063	434	32.087	430
32.113	402	32.139	432
32.164	375	32.189	435
32.214	353	32.240	441
32.266	338	32.290	448
32.316	331	32.341	455
32.367	331	32.392	464
32.417	339	32.443	472
32.468	355	32.493	480
32.519	376	32.544	488
32.570	405	32.594	495
32.620	437	32.646	500
32.671	471	32.696	504
32.721	506	32.747	506
32.773	540	32.797	506
32.823	571	32.848	505
32.874	598	32.898	503
32.924	618	32.950	498
32.975	631	33.001	494
33.025	637	33.051	488
33.077	634	33.102	481
33.127	624	33.152	474
33.178	606	33.204	468
33.228	582	33.254	462
33.279	553	33.305	457
33.330	521	33.355	452
33.381	486	33.406	449
33.431	451	33.457	448
33.482	418	33.508	447
33.532	388	33.558	447
33.584	363	33.609	449
33.634	345	33.659	452
33.685	334	33.711	455
33.735	330	33.761	459
33.786	335	33.812	464
33.836	347	33.862	469
33.888	365	33.913	473
33.938	391	33.963	478
33.989	421	34.015	482
34.039	454	34.065	485
34.090	488	34.116	488
34.141	523	34.166	490
34.192	556	34.217	491
34.242	585	34.268	491
34.293	608	34.319	491
34.343	624	34.369	489
34.395	633	34.420	487
34.445	635	34.470	484
34.496	629	34.522	482
34.546	614	34.572	479
34.597	594	34.623	476
34.647	567	34.673	473
34.699	537	34.724	469
34.749	503	34.774	467
34.800	468	34.826	465
34.850	434	34.876	463
34.901	403	34.927	461
34.952	376	34.977	460
35.003	355	35.028	460
35.053	341	35.079	460
35.104	333	35.130	460
35.154	334	35.180	460
35.206	341	35.231	462
35.256	357	35.281	464
35.307	379	35.333	465
35.357	407	35.383	467
35.408	438	35.434	469
35.458	472	35.484	471
35.510	506	35.535	474
35.560	539	35.585	476
35.611	570	35.637	478
35.661	595	35.687	480
35.712	615	35.738	482
35.763	627	35.788	483
35.814	633	35.839	484
35.864	630	35.890	485
35.915	620	35.941	485
35.965	602	35.991	485
36.017	579	36.042	483
36.067	550	36.092	483
36.118	519	36.144	481
36.168	485	36.194	479
36.219	451	36.245	477
36.270	419	36.295	474
36.321	390	36.346	471
36.371	367	36.396	468
36.422	349	36.448	465
36.472	339	36.498	464
36.523	336	36.549	461
36.574	340	36.599	459
36.625	352	36.650	457
36.675	371	36.701	456
36.726	395	36.752	457
36.776	424	36.802	457
36.828	456	36.853	458
36.878	490	36.903	461
36.929	523	36.955	463
36.979	553	37.005	467
37.030	581	37.056	470
37.081	603	37.106	474
37.132	619	37.157	478
37.182	626	37.207	482
37.233	628	37.259	485
37.283	622	37.309	488
37.334	608	37.360	491
37.385	587	37.410	493
37.436	562	37.461	494
37.487	533	37.512	494
37.537	501	37.563	491
37.588	467	37.613	490
37.639	435	37.664	486
37.690	406	37.714	483
37.740	381	37.766	478
37.791	361	37.816	473
37.841	347	37.867	467
37.893	341	37.917	463
37.943	342	37.968	458
37.994	350	38.018	453
38.044	365	38.070	450
38.095	386	38.120	448
38.145	412	38.171	447
38.197	442	38.221	447
38.247	474	38.272	449
38.298	506	38.323	451
38.348	538	38.374	455
38.399	566	38.424	460
38.450	590	38.475	466
38.501	607	38.525	472
38.551	619	38.577	478
38.602	624	38.627	484
38.652	621	38.678	490
38.704	610	38.728	495
38.754	594	38.779	499
38.805	571	38.830	502
38.855	545	38.881	503
38.906	515	38.931	503
38.956	483	38.982	501
39.008	452	39.032	498
39.058	422	39.083	493
39.109	395	39.134	488
39.159	374	39.185	481
39.210	358	39.235	473
39.261	349	39.286	466
39.312	346	39.336	459
39.362	350	39.388	452
39.413	362	39.438	446
39.463	380	39.489	441
39.515	402	39.539	438
39.565	430	39.590	437
39.616	460	39.641	437
39.666	491	39.692	440
39.717	521	39.742	443
39.767	550	39.793	449
39.819	575	39.843	456
39.869	595	39.894	464
39.920	608	39.945	473
39.970	616	39.996	481
40.021	617	40.046	490
40.072	611	40.097	497
40.123	598	40.147	503
40.173	579	40.199	509
40.224	555	40.249	512
40.274	527	40.300	513
40.326	497	40.350	512
40.376	467	40.401	510
40.427	438	40.452	504
40.477	410	40.503	498
40.528	388	40.554	490
40.578	370	40.604	481
40.630	358	40.655	471
40.680	353	40.705	462
40.731	354	40.757	452
40.781	362	40.807	444
40.832	375	40.858	436
40.883	395	40.908	432
40.934	420	40.959	428
40.984	447	41.010	427
41.035	476	41.061	428
41.085	506	41.111	432
41.137	533	41.162	438
41.187	559	41.212	445
41.238	580	41.264	454
41.288	597	41.314	465
41.339	606	41.365	476
41.390	610	41.415	486
41.441	608	41.466	497
41.491	598	41.516	506
41.542	583	41.568	514
41.592	562	41.618	519
41.643	538	41.669	522
41.694	511	41.719	523
41.745	482	41.770	521
41.795	453	41.821	516
41.846	427	41.872	509
41.896	403	41.922	500
41.948	384	41.973	490
41.998	370	42.023	479
42.049	362	42.075	467
42.099	359	42.125	455
42.150	364	42.176	444
42.201	375	42.226	435
42.252	391	42.277	426
42.302	412	42.327	421
42.353	436	42.379	418
42.403	463	42.429	418
42.454	491	42.480	421
42.505	518	42.530	427
42.556	543	42.581	435
42.606	566	42.632	445
42.657	583	42.683	457
42.707	595	42.733	469
42.759	602	42.784	482
42.809	602	42.834	494
42.860	596	42.886	506
42.910	584	42.936	516
42.961	567	42.987	523
43.012	545	43.037	528
43.063	521	43.088	531
43.113	495	43.138	530
43.164	468	43.190	526
43.214	442	43.240	520
43.265	418	43.291	511
43.316	398	43.341	500
43.367	383	43.392	487
43.417	373	43.443	473
43.468	368	43.494	460
43.518	369	43.544	447
43.570	376	43.595	435
43.620	389	43.645	424
43.671	407	43.697	416
43.721	428	43.747	412
43.772	452	43.798	410
43.823	478	43.848	411
43.874	504	43.899	415
43.924	528	43.950	424
43.975	550	44.001	435
44.025	569	44.051	446
44.076	582	44.102	461
44.127	591	44.152	474
44.178	594	44.203	490
44.229	592	44.254	503
44.279	583	44.305	516
44.330	569	44.355	526
44.381	551	44.406	534
44.432	530	44.456	538
44.482	506	44.508	538
44.533	481	44.558	536
44.583	456	44.609	530
44.635	433	44.659	522
44.685	413	44.710	511
44.736	397	44.761	496
44.786	384	44.812	482
44.837	378	44.862	466
44.887	376	44.913	450
44.939	381	44.963	437
44.989	390	45.014	425
45.040	404	45.065	413
45.090	422	45.116	407
45.141	444	45.166	403
45.192	467	45.217	402
45.243	491	45.267	406
45.293	514	45.319	413
45.344	535	45.369	424
45.394	555	45.420	436
45.446	569	45.470	451
45.496	580	45.521	466
45.547	584	45.572	483
45.597	585	45.623	499
45.648	579	45.673	514
45.698	569	45.724	527
45.750	554	45.774	536
45.800	536	45.825	542
45.851	515	45.876	546
45.901	493	45.927	544
45.952	469	45.977	540
46.003	448	46.028	532
46.054	428	46.078	521
46.104	410	46.130	507
46.155	398	46.180	491
46.205	389	46.231	474
46.257	386	46.281	457
46.307	387	46.332	442
46.358	393	46.383	426
46.408	404	46.434	413
46.459	419	46.484	403
46.510	437	46.535	398
46.561	458	46.585	396
46.611	480	46.636	398
46.662	501	46.687	404
